# temperature [K], pressure [bar], H2O, H2, He, 12CO
2.383893820119968950e+03 1.389139705019461322e-06 6.407127719345227069e-08 2.703667029128336785e-05 4.614805847118173278e-04 2.697901836980599682e-04
2.396937606761413008e+03 2.470278535103651046e-06 1.536589124993761469e-07 6.562229924639739927e-05 7.210428270918173158e-04 2.705728240739532927e-04
2.420664396311403380e+03 4.392845456035934776e-06 2.919384565381109950e-07 1.275558276381404837e-04 1.008438768717521885e-03 2.714236820928016400e-04
2.459368598729721725e+03 7.811706625951745590e-06 4.277544872931748052e-07 1.938553225872227963e-04 1.246416904797647586e-03 2.721275432971934126e-04
2.503199262908030960e+03 1.389139705019461576e-05 5.871449163533842043e-07 2.768300791853202923e-04 1.493458908497439412e-03 2.728565489470303877e-04
2.549656111751490243e+03 2.470278535103651046e-05 7.875815666629460378e-07 3.865243003507770874e-04 1.769963258670363823e-03 2.736675405954065005e-04
2.598972743545063622e+03 4.392845456035935454e-05 1.037469573402478794e-06 5.301338061454843658e-04 2.079696343506493017e-03 2.745707670091848121e-04
2.649575717630015333e+03 7.811706625951745590e-05 1.379462089911191987e-06 7.328143284115019125e-04 2.454821493512264301e-03 2.756574101997463018e-04
2.699429001445092126e+03 1.389139705019461441e-04 1.909119195598075912e-06 1.050636537754046345e-03 2.954646664202191953e-03 2.770929693579866166e-04
2.746466075727497810e+03 2.470278535103651182e-04 2.814560399133768250e-06 1.596102731481135713e-03 3.668373151024801118e-03 2.791184463744139600e-04
2.789432574151629069e+03 4.392845456035935183e-04 4.449205984478932974e-06 2.584035226185738259e-03 4.716486859100251644e-03 2.820420059313509314e-04
2.828929173228722902e+03 7.811706625951745590e-04 7.365505452334799846e-06 4.360133937057205679e-03 6.215266807352264576e-03 2.861230042057767296e-04
2.868875859303085235e+03 1.389139705019461386e-03 1.197961633224151789e-05 7.229335810937240897e-03 8.145739568402655603e-03 2.912208531240898933e-04
2.915997444702938083e+03 2.470278535103650856e-03 1.771506592851941763e-05 1.097121789912941861e-02 1.021722889487134377e-02 2.965139555868102406e-04
2.976062053734019173e+03 4.392845456035934966e-03 2.282149830453984347e-05 1.464002587568173121e-02 1.197639751397787215e-02 3.008800681567344940e-04
3.050550878021947028e+03 7.811706625951745156e-03 2.608788611796528220e-05 1.745163382041658301e-02 1.320562337956568237e-02 3.038631264588435876e-04
3.136784166378075952e+03 1.389139705019461560e-02 2.783331743432549814e-05 1.946630944648556488e-02 1.403847720541701906e-02 3.058538716830833809e-04
3.234290905419020419e+03 2.470278535103651030e-02 2.812656695504813675e-05 2.058716215371328428e-02 1.448714580191086052e-02 3.069146448787120991e-04
3.358365246718029084e+03 4.392845456035934792e-02 2.426298462227681455e-05 1.869870626119313900e-02 1.372566465209636676e-02 3.051070775856197233e-04
3.541825947156748953e+03 7.811706625951746197e-02 1.476262403947159869e-05 1.218017402545588240e-02 1.082185205922449149e-02 2.980257935660812763e-04
3.784559941493104361e+03 1.389139705019461490e-01 6.759872941575315215e-06 6.075404305346370978e-03 7.419890705339040812e-03 2.891319615337757578e-04
4.095688251469230181e+03 2.470278535103651030e-01 2.341153371481732276e-06 2.343584852760491680e-03 4.482603624983596061e-03 2.796311313672885410e-04
4.562906403091476022e+03 4.392845456035935348e-01 4.659594890174278326e-07 5.056114203013756204e-04 2.030711089023271541e-03 2.496099669801549940e-04
5.344363346855217969e+03 7.811706625951745364e-01 5.570567524137895412e-08 4.875874559852042044e-05 6.208088306745589060e-04 8.324093654261494014e-05
6.542111110664702210e+03 1.389139705019461379e+00 4.042844221530259991e-09 3.565890132269372802e-06 1.669510287776887361e-04 2.973470817878885948e-06
8.050271876017526665e+03 2.470278535103651141e+00 4.568743493349604735e-10 4.755450330108938775e-07 6.079970818013594414e-05 1.122706641610462009e-07
9.427351317007434773e+03 4.392845456035935570e+00 1.708284707836464089e-10 1.976192919974466106e-07 3.902102365347692758e-05 1.622874479007224180e-08
1.000000000000000000e+04 7.811706625951745586e+00 2.683340159477207739e-10 3.208639986318778699e-07 4.965358001763372879e-05 1.284937333295570907e-08
1.000000000000000000e+04 1.389139705019461424e+01 8.570881861174340140e-10 1.028525850539754322e-06 8.910383747940645201e-05 2.371257626455488484e-08
1.000000000000000000e+04 2.470278535103651052e+01 2.725287937462867210e-09 3.277233868905621978e-06 1.594026897932641505e-04 4.333796047468329992e-08
1.000000000000000000e+04 4.392845456035934859e+01 8.629861140453718417e-09 1.038325860302394567e-05 2.844347624266722191e-04 7.858324122864484152e-08
1.000000000000000000e+04 7.811706625951745764e+01 2.717229058706932411e-08 3.264793565929267389e-05 5.060304643584230024e-04 1.414400315283153152e-07
1.000000000000000000e+04 1.389139705019461530e+02 8.491853939325937435e-08 1.016109591390013605e-04 8.971825064929957140e-04 2.527081741525725355e-07
1.000000000000000000e+04 2.470278535103651052e+02 2.617432796442669143e-07 3.106047227532293589e-04 1.581158790178148216e-03 4.470147271026892703e-07
