# Wlen(nm) Transmission Continuum
1.921314571305012123e+03 2.322358857790302877e-01 5.971668655601842790e-01
1.921321103637825900e+03 2.390255623672085938e-01 5.973118995245572105e-01
1.921327814857231715e+03 2.475966740259110122e-01 5.974605578790739280e-01
1.921334313976333988e+03 2.574946451547892035e-01 5.976041828575319181e-01
1.921341022404476462e+03 2.679945047837223315e-01 5.977520877895622364e-01
1.921347556951364822e+03 2.785428600105307462e-01 5.978958218254880608e-01
1.921354196274734250e+03 2.888667685168270771e-01 5.980415200025500644e-01
1.921360799494233788e+03 2.988451457346754103e-01 5.981860857711210899e-01
1.921367369537335435e+03 3.084887480841584373e-01 5.983295888788413563e-01
1.921374041604853574e+03 3.178495005243046068e-01 5.984749774012254608e-01
1.921380542192162920e+03 3.269602267673570872e-01 5.986162971374757724e-01
1.921387283283134821e+03 3.358327213861526106e-01 5.987624994221089070e-01
1.921393781609168173e+03 3.444557281209120747e-01 5.989031035047537310e-01
1.921400457157182473e+03 3.527980823662902887e-01 5.990472020064183667e-01
1.921407022674665541e+03 3.608066796149871913e-01 5.991885894765908160e-01
1.921413628342154652e+03 3.684372513572394814e-01 5.993305057094832078e-01
1.921420263307608593e+03 3.756662342050937076e-01 5.994727125714958138e-01
1.921426798918944769e+03 3.824761900461572384e-01 5.996124583271372765e-01
1.921433503507908654e+03 3.888541373019740455e-01 5.997554754941489819e-01
1.921440001220579688e+03 3.947775217054778074e-01 5.998937498363543508e-01
1.921446710941499987e+03 4.002093280138970810e-01 6.000361953444141028e-01
1.921453240807653856e+03 4.050987618899614118e-01 6.001744907527112316e-01
1.921459880047436400e+03 4.093864485855328583e-01 6.003147673006683505e-01
1.921466479961868117e+03 4.129929551050998127e-01 6.004538782250818940e-01
1.921473048544785115e+03 4.158104054421224438e-01 6.005919976958467021e-01
1.921479718683134706e+03 4.176977019832986415e-01 6.007319149565275573e-01
1.921486216433426080e+03 4.184617354201660699e-01 6.008678892436838392e-01
1.921492956971364038e+03 4.178367236494411330e-01 6.010086036495987383e-01
1.921499453889568940e+03 4.154606398722823224e-01 6.011439043869466481e-01
1.921506124648332388e+03 4.108329994548873820e-01 6.012824908412284231e-01
1.921512691564001443e+03 4.032675944733146167e-01 6.014185891299612674e-01
1.921519291064831577e+03 3.918408013293551151e-01 6.015550324048242192e-01
1.921525928805180911e+03 3.754046924032291566e-01 6.016919325577206878e-01
1.921532456872216471e+03 3.527221021816984714e-01 6.018262446351555495e-01
1.921539165613018668e+03 3.229412391135556004e-01 6.019639373711631603e-01
1.921545661916777135e+03 2.864950479891168467e-01 6.020969450994733130e-01
1.921552362139988873e+03 2.459575625713409652e-01 6.022337934245070024e-01
1.921558898110374912e+03 2.063932821161513220e-01 6.023669599868143321e-01
1.921565526474231774e+03 1.743583996963066207e-01 6.025016795198746555e-01
1.921572133870413836e+03 1.555670445895304121e-01 6.026356429789260227e-01
1.921578690198951790e+03 1.527544848314398573e-01 6.027682457880456646e-01
1.921585369196805459e+03 1.647332310419644952e-01 6.029029967750964003e-01
1.921591864885643872e+03 1.863790765544084127e-01 6.030337275431486566e-01
1.921598592517548923e+03 2.097813340395620341e-01 6.031687920483298493e-01
1.921605099597352364e+03 2.265912862660545146e-01 6.032991054289794652e-01
1.921611754768126957e+03 2.303694496325569274e-01 6.034320560111945397e-01
1.921618333875195731e+03 2.180244621348007006e-01 6.035631608339264709e-01
1.921624916408773743e+03 1.905490777572608485e-01 6.036940096449749937e-01
1.921631567719086433e+03 1.531307703793159669e-01 6.038258964556704189e-01
1.921638077439370591e+03 1.135243840059133730e-01 6.039546556558524903e-01
1.921644801128935569e+03 7.918114481012288042e-02 6.040873149913860152e-01
1.921651296021294911e+03 5.536598538897678085e-02 6.042151400223582103e-01
1.921657975941656559e+03 4.351123403819483898e-02 6.043462787533953051e-01
1.921664528815887707e+03 4.050893421288445650e-02 6.044746006691082973e-01
1.921671135496819716e+03 4.076300796730808473e-02 6.046036530528956510e-01
1.921677761176221793e+03 3.961341695434202753e-02 6.047327509397064649e-01
1.921684294441524344e+03 3.482949142149595334e-02 6.048597292173223394e-01
1.921690993102207813e+03 2.676011482843282732e-02 6.049895935296916161e-01
1.921697487378560709e+03 1.801077217169657491e-02 6.051151782653793054e-01
1.921704189989955921e+03 1.203197725056901965e-02 6.052444645253673983e-01
1.921710718688847237e+03 1.191891089568310885e-02 6.053700769633262313e-01
1.921717347458224140e+03 2.014372182401930056e-02 6.054972927630580815e-01
1.921723949564567874e+03 3.855681676938241265e-02 6.056236746865027998e-01
1.921730504315626149e+03 6.808602836991571594e-02 6.057488323455297863e-01
1.921737180005635082e+03 1.083482969715412608e-01 6.058759741288226586e-01
1.921743673665506321e+03 1.573934541790763253e-01 6.059993345889391758e-01
1.921750396908155381e+03 2.117717272045804289e-01 6.061267300102136657e-01
1.921756903490428613e+03 2.672600967275979289e-01 6.062497041278811505e-01
1.921763552288118490e+03 3.201671115515661858e-01 6.063750454309289051e-01
1.921770132880479878e+03 3.680849733527002954e-01 6.064987820877842939e-01
1.921776707056804298e+03 4.099953819192338478e-01 6.066220816682313943e-01
1.921783361835570076e+03 4.459485131504107303e-01 6.067465711608810430e-01
1.921789861214094344e+03 4.765673822918282676e-01 6.068678414207289151e-01
1.921796590355610533e+03 5.026519484730783693e-01 6.069930740389570811e-01
1.921803083216985897e+03 5.249656317816592255e-01 6.071135965064675677e-01
1.921809749981629011e+03 5.442006401662053960e-01 6.072370276160761193e-01
1.921816311120308683e+03 5.609031800554803437e-01 6.073581874676100556e-01
1.921822902660185719e+03 5.755102253476968022e-01 6.074795937173197435e-01
1.921829538588363903e+03 5.883778553755437679e-01 6.076014989303437641e-01
1.921836054726937618e+03 5.997984433809805394e-01 6.077208927952983952e-01
1.921842765621063108e+03 6.100141133393826021e-01 6.078435335848002552e-01
1.921849257864866786e+03 6.192092112682237026e-01 6.079618683750402930e-01
1.921855940533879220e+03 6.275366126962904634e-01 6.080833557821555546e-01
1.921862484280403351e+03 6.351230949234938361e-01 6.082020050823520041e-01
1.921869091120893245e+03 6.420719513978222492e-01 6.083214849287409409e-01
1.921875710260364940e+03 6.484638199744834353e-01 6.084408716739443390e-01
1.921882241095692052e+03 6.543688445761994821e-01 6.085583565055696642e-01
1.921888935804663788e+03 6.598438809130899863e-01 6.086784708383182751e-01
1.921895427430420114e+03 6.649280475400882739e-01 6.087946339418663921e-01
1.921902123939990133e+03 6.696526930888674345e-01 6.089141462968127305e-01
1.921908652357110213e+03 6.740408932975910927e-01 6.090303491206014996e-01
1.921915272434045846e+03 6.781076200046939340e-01 6.091478716423811557e-01
1.921921876847918838e+03 6.818616756774463772e-01 6.092648035606345047e-01
1.921928420315475250e+03 6.853207262077845030e-01 6.093803488636850840e-01
1.921935100902757085e+03 6.885260295764290550e-01 6.094979999487977196e-01
1.921941591909989256e+03 6.915479580667266424e-01 6.096120073473428880e-01
1.921948300195077536e+03 6.944724890220490554e-01 6.097295154316016985e-01
1.921954815346773103e+03 6.973605371920083007e-01 6.098433337031151646e-01
1.921961446594758627e+03 7.002277182656708732e-01 6.099588701020353110e-01
1.921968038347368292e+03 7.030439425222553274e-01 6.100734086915006182e-01
1.921974592381402772e+03 7.057349026306047879e-01 6.101869860856895533e-01
1.921981260911685240e+03 7.081942556355960150e-01 6.103022349976735539e-01
1.921987751299916681e+03 7.103259585445855784e-01 6.104141026640108603e-01
1.921994469294254486e+03 7.120836504261154332e-01 6.105295793619245348e-01
1.922000973245733576e+03 7.134594365335656940e-01 6.106410728827623702e-01
1.922007613598143507e+03 7.144597596635802184e-01 6.107545964553211526e-01
1.922014194755053268e+03 7.150594360165543062e-01 6.108668010997200248e-01
1.922020757288584946e+03 7.151760299565638190e-01 6.109783842914062735e-01
1.922027415827787763e+03 7.147691889256468922e-01 6.110912899984256574e-01
1.922033905596540762e+03 7.140032511661472681e-01 6.112010338964594114e-01
1.922040631232630631e+03 7.133319548626092521e-01 6.113144541669508492e-01
1.922047126050328643e+03 7.132969095479176902e-01 6.114236806444234285e-01
1.922053773439309225e+03 7.142288828683059920e-01 6.115351667536145230e-01
1.922060346067311912e+03 7.161603734661539100e-01 6.116450947504935565e-01
1.922066915032129145e+03 7.188183536676300278e-01 6.117546595043885649e-01
1.922073565647401665e+03 7.215806026517704863e-01 6.118652788965581735e-01
1.922080056010971020e+03 7.236783407590234862e-01 6.119729351033139642e-01
1.922086784790508318e+03 7.246672440205426113e-01 6.120842357639970643e-01
1.922093273756895314e+03 7.246739644681082781e-01 6.121912709049833756e-01
1.922099926113360880e+03 7.242976338279361048e-01 6.123006969519605436e-01
1.922106492280478733e+03 7.242589257067100217e-01 6.124084035409738114e-01
1.922113065607139333e+03 7.250408519402056218e-01 6.125159276518536977e-01
1.922119710366860318e+03 7.267893205006650259e-01 6.126243155694793829e-01
1.922126204486527968e+03 7.293181090320194349e-01 6.127299506109669114e-01
1.922132928015951620e+03 7.321347188412223872e-01 6.128390096702502898e-01
1.922139416361765143e+03 7.346347358661796667e-01 6.129439575132081819e-01
1.922146071615398796e+03 7.363703762865767555e-01 6.130513029089982302e-01
1.922152633390885740e+03 7.371142468646355583e-01 6.131568413001987627e-01
1.922159209008714924e+03 7.367664812663323737e-01 6.132623045645952953e-01
1.922165849982496184e+03 7.352260515315434120e-01 6.133685138265121406e-01
1.922172345787229915e+03 7.322771965088261670e-01 6.134721078824399987e-01
1.922179066136507572e+03 7.275285122343371214e-01 6.135789777702344017e-01
1.922185553861269455e+03 7.203512246788728035e-01 6.136818542497403106e-01
1.922192209940521479e+03 7.097544485600015829e-01 6.137871003869198594e-01
1.922198769394862893e+03 6.942722997100424509e-01 6.138905217890425758e-01
1.922205345231953970e+03 6.719914254133134701e-01 6.139939059769388141e-01
1.922211984490637406e+03 6.411309045147339791e-01 6.140979874087530987e-01
1.922218479908172185e+03 6.013422299080433131e-01 6.141995226241581118e-01
1.922225199148504316e+03 5.554326439596593001e-01 6.143042537852998475e-01
1.922231686251735937e+03 5.104690881017207582e-01 6.144050748269869189e-01
1.922238341083822661e+03 4.760222392288543936e-01 6.145082050513580585e-01
1.922244900288736972e+03 4.599435804350838763e-01 6.146095587001511040e-01
1.922251474271948609e+03 4.656927044193613918e-01 6.147108475266119809e-01
1.922258113887610307e+03 4.921064561852085961e-01 6.148128499890710419e-01
1.922264606844447599e+03 5.333632660369205247e-01 6.149123104459763844e-01
1.922271327048266585e+03 5.803844910356518172e-01 6.150149513685118086e-01
1.922277813529488867e+03 6.248495267788313212e-01 6.151137328890755596e-01
1.922284465040392888e+03 6.622721118836598642e-01 6.152147324713417298e-01
1.922291026068831798e+03 6.916541127757864782e-01 6.153140656578506285e-01
1.922297596123788253e+03 7.138327560774423430e-01 6.154132447547318030e-01
1.922304238169738028e+03 7.302718917323276493e-01 6.155132151720000833e-01
1.922310726591144203e+03 7.424344857639579853e-01 6.156105868610834975e-01
1.922317449832117518e+03 7.515219579923518856e-01 6.157111841046171152e-01
1.922323935690851158e+03 7.584215878812630152e-01 6.158079420117996694e-01
1.922330581805319298e+03 7.637670998545290635e-01 6.159067981192050123e-01
1.922337146731468692e+03 7.679768392903220109e-01 6.160041562181195474e-01
1.922343710782559128e+03 7.713132221163289115e-01 6.161012131056996521e-01
1.922350357333340753e+03 7.739286809760725916e-01 6.161991964936939237e-01
1.922356842752349849e+03 7.758840883324513715e-01 6.162945202536499467e-01
1.922363563887280407e+03 7.771489949917891327e-01 6.163930127025939454e-01
1.922370052732141176e+03 7.776267529213465313e-01 6.164878157025183159e-01
1.922376691373685389e+03 7.772381399129898449e-01 6.165845173705249982e-01
1.922383262272966931e+03 7.760341295893005142e-01 6.166799438685094392e-01
1.922389818243343825e+03 7.743545175955330873e-01 6.167748679271386480e-01
1.922396471374737757e+03 7.727186072037618425e-01 6.168709074218848842e-01
1.922402956170436482e+03 7.713854791600260885e-01 6.169642348034015678e-01
1.922409668362760385e+03 7.701585669185599947e-01 6.170605417839115647e-01
1.922416164649677057e+03 7.684103006653221213e-01 6.171534674001586396e-01
1.922422793740570569e+03 7.650674534466437304e-01 6.172480055040416858e-01
1.922429372689642832e+03 7.589758119527172386e-01 6.173415420280882193e-01
1.922435918501220840e+03 7.498665393619747821e-01 6.174343244698077271e-01
1.922442580290243086e+03 7.393211522607122665e-01 6.175284613557640023e-01
1.922449064462151910e+03 7.305032387760862500e-01 6.176198082422869051e-01
1.922455765633263354e+03 7.262600737429830700e-01 6.177139221101368705e-01
1.922462271439773303e+03 7.278733400760036831e-01 6.178050104750917315e-01
1.922468888901051287e+03 7.352553116803542954e-01 6.178973777015913660e-01
1.922475477977809305e+03 7.468741138314174410e-01 6.179890640473472141e-01
1.922482011551265259e+03 7.597600166060414217e-01 6.180796978875474634e-01
1.922488684076170330e+03 7.711172456135981790e-01 6.181719716259728159e-01
1.922495167623806992e+03 7.797764683615220349e-01 6.182613538919367047e-01
1.922501855693862808e+03 7.858868698504756223e-01 6.183532687941337702e-01
1.922508373098739867e+03 7.901324769774437096e-01 6.184425582290710155e-01
1.922514976850199673e+03 7.932440691364155416e-01 6.185327490480182488e-01
1.922521578133776757e+03 7.957170903882652135e-01 6.186226232081735166e-01
1.922528097388548531e+03 7.977795298323537843e-01 6.187111032371851449e-01
1.922534782728828759e+03 7.995108049415350360e-01 6.188015514945039985e-01
1.922541265651712592e+03 8.009544296301762678e-01 6.188889850053771458e-01
1.922547938539628831e+03 8.021469517943964345e-01 6.189786968517313470e-01
1.922554469622886018e+03 8.031110727749811717e-01 6.190662238952088225e-01
1.922561057583085358e+03 8.038695336184926710e-01 6.191542345311317197e-01
1.922567673153854230e+03 8.044515538200978089e-01 6.192423327237807085e-01
1.922574176008138920e+03 8.048864993257116573e-01 6.193286554784865894e-01
1.922580876244526280e+03 8.051982060168278998e-01 6.194173141546588379e-01
1.922587358542175707e+03 8.054025508486926110e-01 6.195028147668970586e-01
1.922594014165628778e+03 8.055078620495341735e-01 6.195903212016711237e-01
1.922600561008518753e+03 8.055159737884852733e-01 6.196761206378952336e-01
1.922607131094773422e+03 8.054233283795971809e-01 6.197619490415997578e-01
1.922613763034345538e+03 8.052208960110567304e-01 6.198483057386132700e-01
1.922620247405100145e+03 8.048921433130116210e-01 6.199324694740552255e-01
1.922626964619566252e+03 8.044101423618358337e-01 6.200193727309573077e-01
1.922633446291499467e+03 8.037423985532174964e-01 6.201029562920071792e-01
1.922640082566924548e+03 8.028632098733822220e-01 6.201882566654892681e-01
1.922646647251940522e+03 8.017756102626247827e-01 6.202723615527024892e-01
1.922653197380325537e+03 8.005417894213102681e-01 6.203560073728939805e-01
1.922659847771554723e+03 7.992537175989499199e-01 6.204406553283290382e-01
1.922666329001471468e+03 7.979598092608258808e-01 6.205228807237384014e-01
1.922673030422822649e+03 7.966531579978348709e-01 6.206076202790267171e-01
1.922679528895986095e+03 7.952794167613321807e-01 6.206895226273988486e-01
1.922686143738575538e+03 7.937134195420070260e-01 6.207726179674850631e-01
1.922692728349452636e+03 7.917735023698435626e-01 6.208550596663707788e-01
1.922699256434800418e+03 7.892921853811101229e-01 6.209365242212188107e-01
1.922705927361781050e+03 7.861322425552036419e-01 6.210194944997003974e-01
1.922712407965156444e+03 7.821563265817167432e-01 6.210998299756292917e-01
1.922719086478079362e+03 7.771862951769364924e-01 6.211823431516855232e-01
1.922725606351933948e+03 7.709718147005643063e-01 6.212626267508507549e-01
1.922732197675637735e+03 7.631488138538392585e-01 6.213435197346298677e-01
1.922738804297352544e+03 7.531828404617053607e-01 6.214243279367066553e-01
1.922745308253252460e+03 7.402947682515512717e-01 6.215036141854243246e-01
1.922752001801321967e+03 7.233719297274644466e-01 6.215849361905616544e-01
1.922758481777672841e+03 7.008411898547023400e-01 6.216633975699856762e-01
1.922765135295233677e+03 6.705568091284912491e-01 6.217436883883405985e-01
1.922771678655639334e+03 6.300405086042158986e-01 6.218223815711791946e-01
1.922778244373162579e+03 5.772408427025673694e-01 6.219010764964885141e-01
1.922784875091935874e+03 5.120956189384304746e-01 6.219802792525381818e-01
1.922791354625341683e+03 4.385841638399035070e-01 6.220574130944127589e-01
1.922798069291815182e+03 3.658429677038502748e-01 6.221370720162225920e-01
1.922804550435314695e+03 3.065688881470396976e-01 6.222136963665984011e-01
1.922811176869334986e+03 2.728606012873568409e-01 6.222917704492448854e-01
1.922817745803395837e+03 2.719717477778000880e-01 6.223688999281786760e-01
1.922824283826199007e+03 3.039677004219874523e-01 6.224454026851704569e-01
1.922830940729495296e+03 3.617734782998736076e-01 6.225230264336458763e-01
1.922837419635050082e+03 4.333348652709738680e-01 6.225983132688406307e-01
1.922844105739995030e+03 5.059108862394037232e-01 6.226757378424697675e-01
1.922850613934373541e+03 5.702336398016107921e-01 6.227508391561827894e-01
1.922857211195429500e+03 6.221621309818466949e-01 6.228267036971302240e-01
1.922863807791493400e+03 6.615566933471115352e-01 6.229022945925268839e-01
1.922870316029791638e+03 6.902884449225827890e-01 6.229766126352213051e-01
1.922877001206319164e+03 7.106721934953802444e-01 6.230526822306801105e-01
1.922883479483539531e+03 7.246659740207145317e-01 6.231261378576484766e-01
1.922890134936646746e+03 7.336749791100831697e-01 6.232013365664784699e-01
1.922896672271137959e+03 7.385792863148642473e-01 6.232749386603096964e-01
1.922903238268558198e+03 7.397749507717712447e-01 6.233486023971158696e-01
1.922909864616220148e+03 7.371324178421077011e-01 6.234226782657618093e-01
1.922916342449564581e+03 7.301082277607650051e-01 6.234948369360647780e-01
1.922923055048076321e+03 7.180944440969582176e-01 6.235693430319128039e-01
1.922929534167097700e+03 7.010507495390276844e-01 6.236409995332751199e-01
1.922936156876810855e+03 6.804008340201149752e-01 6.237139823839265018e-01
1.922942725441893799e+03 6.596880644619395051e-01 6.237861075313440029e-01
1.922949258083761606e+03 6.438302793331510676e-01 6.238575807166778509e-01
1.922955916273861931e+03 6.370177370559501062e-01 6.239301635802019241e-01
1.922962393478042713e+03 6.412077317631000861e-01 6.240005180900911608e-01
1.922969071852772231e+03 6.558687801779395921e-01 6.240727942991755040e-01
1.922975583682008619e+03 6.780205539178681962e-01 6.241430108988847980e-01
1.922982171555523792e+03 7.029929892991471085e-01 6.242137893927628411e-01
1.922988773442924412e+03 7.264292252382624770e-01 6.242844583523903257e-01
1.922995270636073656e+03 7.458967802526377255e-01 6.243537527255159647e-01
1.923001962760700280e+03 7.608684504986371611e-01 6.244248630988614712e-01
1.923008439335232879e+03 7.719158117281794684e-01 6.244934292222003025e-01
1.923015081392489037e+03 7.799708553244397713e-01 6.245634882801628374e-01
1.923021628024553365e+03 7.858815906236823468e-01 6.246322844883354097e-01
1.923028178967816984e+03 7.902854325035182370e-01 6.247008715931259282e-01
1.923034816270510646e+03 7.936175005996741749e-01 6.247701036372159678e-01
1.923041292400235079e+03 7.961672136569191149e-01 6.248374033374523018e-01
1.923047987592878371e+03 7.981338425497687128e-01 6.249067190221688772e-01
1.923054480017414789e+03 7.996536780117010634e-01 6.249736828169734082e-01
1.923061083662257261e+03 8.008213572687205017e-01 6.250415389054280180e-01
